position     E_HHG_pm        E_HHG_l           E_HHG_s        Phi_LH_l        Phi_LH_s     n_source 
(mm)         (arb.units)     (arb.units)      (arb.units)    (rad)           (rad)         (1/s)    
0.000000000        0.000057856           0.000057856            0.000057856         -482.081137718           83.506287845          74482613845892323780877262463696896.000000000    
0.050000000        0.000149958           0.000131231            0.000039255         -481.040765562           80.628343755          120403632811038716863625204504461312.000000000    
0.100000000        0.000235386           0.000167645            0.000046762         -480.020671666           77.753176816          113408781312522452516714563927801856.000000000    
0.150000000        0.000314297           0.000162086            0.000039283         -479.023444905           74.878191781          106378586483678197776870850917564416.000000000    
0.200000000        0.000419792           0.000113098            0.000067231         -478.047559661           72.004878856          144419874762686151899642978149335040.000000000    
0.250000000        0.000605983           0.000103873            0.000126200         -477.089712608           69.136480522          258842077510220541839208885258289152.000000000    
0.300000000        0.000784261           0.000212273            0.000053386         -476.151289916           66.271527675          251683286669247300084279483392065536.000000000    
0.350000000        0.000949051           0.000286911            0.000111728         -475.235461181           63.406748783          236250477556253581836636159981125632.000000000    
0.400000000        0.001135608           0.000318905            0.000082086         -474.341514198           60.542737946          271608152664692501251250614465200128.000000000    
0.450000000        0.001475419           0.000363599            0.000257811         -473.465858709           57.682953755          502412100792847016512039860272365568.000000000    
0.500000000        0.001821121           0.000442270            0.000124869         -472.608798548           54.826949516          519060609588841233686447741925851136.000000000    
0.550000000        0.002141334           0.000493512            0.000208455         -471.773668903           51.971238158          488260266270121838287736154114490368.000000000    
0.600000000        0.002464364           0.000498482            0.000172498         -470.960309895           49.115820605          500215068876021552651296603939799040.000000000    
0.650000000        0.003026852           0.000567087            0.000403278         -470.165360466           46.263893663          884561159517030330117903525133418496.000000000    
0.700000000        0.003652801           0.000792565            0.000310141         -469.388266424           43.415843556          999678104105281950935550798875066368.000000000    
0.750000000        0.004233868           0.000994232            0.000296204         -468.632086430           40.568441355          942442833537185263560926358199599104.000000000    
0.800000000        0.004789390           0.001096317            0.000350807         -467.897190996           37.721145235          915042908327311237576099633819549696.000000000    
0.850000000        0.005647265           0.001195772            0.000517951         -467.180825927           34.876538139          1435086195612430048560425180795502592.000000000    
0.900000000        0.006709255           0.001424030            0.000629780         -466.481581135           32.035859933          1804230127828287908068803298927312896.000000000    
0.950000000        0.007698447           0.001674048            0.000361451         -465.801909668           29.196489206          1706756770478997583266422612465549312.000000000    
1.000000000        0.008627436           0.001830679            0.000609713         -465.142955684           26.357116013          1627889200964749750435626856879226880.000000000    
1.050000000        0.009861635           0.001980619            0.000628185         -464.502667970           23.519628966          2196466893090106652409638807060611072.000000000    
1.100000000        0.011550627           0.002359912            0.001087300         -463.878582051           20.686333613          3052783053513972974641997909277540352.000000000    
1.150000000        0.013137302           0.002835213            0.000550862         -463.272461496           17.855311550          2912646592026466928046749832580169728.000000000    
1.200000000        0.014622606           0.003202739            0.000935330         -462.686522943           15.024195707          2769170021638373913877434519210950656.000000000    
1.250000000        0.016339076           0.003505431            0.000889959         -462.119361479           12.194245211          3250183525191110691836671667472433152.000000000    
1.300000000        0.018845002           0.004045357            0.001617059         -461.567285028           9.369011170          4819258432739969259420499650214363136.000000000    
1.350000000        0.021252812           0.004708071            0.001037171         -461.031337043           6.547314085          4703024454960669654396441185539325952.000000000    
1.400000000        0.023509443           0.005262880            0.001269018         -460.515009604           3.725530794          4476736448907286015077946144782811136.000000000    
1.450000000        0.025859435           0.005690867            0.001386069         -460.017538068           0.904299825          4734959734143384075628504761463996416.000000000    
1.500000000        0.029319886           0.006383479            0.002095536         -459.534020294           -1.911597884          7081651182677698962141403111732805632.000000000    
1.550000000        0.032790067           0.007292776            0.001776617         -459.064527279           -4.722349707          7212880271120329988055218065820876800.000000000    
1.600000000        0.036047470           0.008146361            0.001536854         -458.613822793           -7.532831094          6876787141085148011747135425922203648.000000000    
1.650000000        0.039236399           0.008845808            0.002017656         -458.182051425           -10.343293772          6837847143371661731764049081928777728.000000000    
1.700000000        0.043704924           0.009842359            0.002457045         -457.763424057           -13.148051396          9732001303073175226577266931780288512.000000000    
1.750000000        0.048471751           0.011136193            0.002666200         -457.356362625           -15.945624513          10544682878841776113984620841077309440.000000000    
1.800000000        0.052953284           0.012408834            0.001815983         -456.966581000           -18.741821664          10069312580648081209238095307709874176.000000000    
1.850000000        0.057226932           0.013505802            0.002658173         -456.595799169           -21.538453798          9753124634113197132306360144970645504.000000000    
1.900000000        0.062693381           0.014864004            0.002835946         -456.238010792           -24.329602072          12671416698618329467490424677424168960.000000000    
1.950000000        0.068950930           0.016612594            0.003595406         -455.888955858           -27.111090755          14733354030600633855160563012017848320.000000000    
2.000000000        0.074847474           0.018365221            0.002412138         -455.554605881           -29.888972683          14101823990910872298842893033788145664.000000000    
2.050000000        0.080423228           0.019945490            0.003197817         -455.239323781           -32.667689399          13544547795414582501593024395476992000.000000000    
2.100000000        0.086871050           0.021701341            0.003474623         -454.937690854           -35.441898376          15909625389534805036327951285079769088.000000000    
2.150000000        0.094721562           0.023989458            0.004428549         -454.641677299           -38.203643802          19675857528148055330759104105849815040.000000000    
2.200000000        0.102164978           0.026305027            0.003426856         -454.356566460           -40.958281079          18949572751667464033191992098371403776.000000000    
2.250000000        0.109199618           0.028472651            0.003608482         -454.090442547           -43.713964779          18191283886399375607287360084219265024.000000000    
2.300000000        0.116654522           0.030711561            0.004305281         -453.839292143           -46.466750399          19582154026826483753399864333170638848.000000000    
2.350000000        0.126046927           0.033641660            0.005120495         -453.590838366           -49.204428751          25060805689543252933021748338454691840.000000000    
2.400000000        0.135088751           0.036618196            0.004541975         -453.348430869           -51.930416184          24506238855416809601124294650702594048.000000000    
2.450000000        0.143642004           0.039462970            0.004016003         -453.124404254           -54.657113211          23548166524557157831981939794689130496.000000000    
2.500000000        0.152177276           0.042280430            0.005032779         -170.173623315           225.360550051          23869918372633389034282923036789178368.000000000    
2.550000000        0.162887741           0.045890909            0.005759435         -169.966910406           222.651686317          30426527013307523519323532104873017344.000000000    
2.600000000        0.173486979           0.049589100            0.005494635         -169.760804244           219.959692162          30586643898664931253975732700923822080.000000000    
2.650000000        0.183523105           0.053145596            0.004600754         -169.571237973           217.268569783          29419753866791586108595971363883188224.000000000    
2.700000000        0.193216012           0.056601714            0.005547968         -169.399683929           214.576782088          28863252865328301107669052770054307840.000000000    
2.750000000        0.204863738           0.060809137            0.006293641         -169.228968888           211.901437303          35233300121829555978916101645834125312.000000000    
2.800000000        0.216885300           0.065218594            0.006356737         -169.053448021           209.248114894          36939972752048650126450670418719145984.000000000    
2.850000000        0.228278628           0.069442306            0.005258830         -168.890379641           206.599490700          35564136515644882022988648818967314432.000000000    
2.900000000        0.239140085           0.073517711            0.005974596         -168.746247665           203.949014373          34441206559825684671878761344619511808.000000000    
2.950000000        0.251423074           0.078176762            0.006697964         -168.604980976           201.312689923          39566290273134363648154834805555462144.000000000    
3.000000000        0.264641383           0.083191091            0.007091287         -168.454067380           198.702961686          43254444091111336902245183094635102208.000000000    
3.050000000        0.277186069           0.087939731            0.005983798         -168.309600980           196.103666878          41701394182809464340340213133936164864.000000000    
3.100000000        0.289107336           0.092493494            0.006240495         -168.184455397           193.501862326          40257948648728217662155824743537704960.000000000    
3.150000000        0.301774024           0.097380560            0.007064476         -168.065863170           190.910245018          43454334317798256847493868221529849856.000000000    
3.200000000        0.315865544           0.102750455            0.007589497         -167.933867765           188.348700064          49110126015902593104761395502578139136.000000000    
3.250000000        0.329293261           0.107758007            0.006713204         -167.800837383           185.804786864          47540192375984148063385721952249315328.000000000    
3.300000000        0.342054763           0.112504330            0.006381674         -167.686826214           183.258377843          45899549976904547584014768370339545088.000000000    
3.350000000        0.354912714           0.117321778            0.007276597         -167.584091720           180.717141154          46981683094460718845070101033936486400.000000000    
3.400000000        0.369459693           0.122642815            0.007937098         -167.466075863           178.207559467          53998547923512107438547852826991656960.000000000    
3.450000000        0.383462800           0.127524841            0.007218815         -167.338873046           175.723462032          52806616983401212840980593021477191680.000000000    
3.500000000        0.396776660           0.132052475            0.006544216         -167.229079974           173.238174838          51006419766974625319500311748390420480.000000000    
3.550000000        0.409750276           0.136454315            0.007344865         -167.134568400           170.753747897          50494142677023450418710434117509447680.000000000    
3.600000000        0.424323247           0.141205162            0.008050462         -167.025307445           168.300132955          57622131702335248560593016775528939520.000000000    
3.650000000        0.438579872           0.145469511            0.007567570         -166.899946438           165.878600694          57269224989828010393681520799097290752.000000000    
3.700000000        0.452139553           0.149268107            0.006657258         -166.788531084           163.459024600          55337503198027292524605042051432579072.000000000    
3.750000000        0.465140334           0.152809221            0.007305807         -166.694889466           161.037495025          53902267496422307524607290395838119936.000000000    
3.800000000        0.479285940           0.156412225            0.007895952         -166.590877985           158.642073284          59583876826694761284139704769868464128.000000000    
3.850000000        0.493483281           0.159520902            0.007709941         -166.466006364           156.283166724          60755528874490262781881928448231866368.000000000    
3.900000000        0.506990687           0.162048440            0.006838928         -166.348402296           153.932564127          58725169077064485889305004459654381568.000000000    
3.950000000        0.519869680           0.164222184            0.007014130         -166.249603442           151.578643776          56886566960734403089815594971726610432.000000000    
4.000000000        0.533340645           0.166183586            0.007698686         -166.146875109           149.244055853          60451053405941996518149226766364835840.000000000    
4.050000000        0.547189731           0.167588831            0.007695945         -166.020791000           146.948141745          63140145924887202153280376817259118592.000000000    
4.100000000        0.560374371           0.168316665            0.006849682         -165.893931469           144.668235865          61070824145298589799327690064027189248.000000000    
4.150000000        0.572931473           0.168614236            0.006764070         -165.785957333           142.384591912          59093242093349637436257505437208805376.000000000    
4.200000000        0.585588141           0.168536666            0.007302171         -165.681334229           140.112658583          60513523781668434184417527659172462592.000000000    
4.250000000        0.598829491           0.167772509            0.007529678         -165.552896025           137.879516236          64320831592190133209717495572390215680.000000000    
4.300000000        0.611462137           0.166281650            0.006847976         -165.415506906           135.670214873          62345021482495934007369176919624908800.000000000    
4.350000000        0.623492446           0.164316996            0.006337611         -165.296307962           133.457527630          60321749743415757105201336592594108416.000000000    
4.400000000        0.635270823           0.161956793            0.006888225         -165.187337344           131.249330683          60003127902170795050925031179186864128.000000000    
4.450000000        0.647674081           0.158768341            0.007272124         -165.056401727           129.077731868          64197352544724784454680546196752171008.000000000    
4.500000000        0.659574626           0.154869680            0.006603476         -164.909413618           126.936733426          62581010508362891117250794874774487040.000000000    
4.550000000        0.670907622           0.150513023            0.005995696         -164.778489859           124.794133586          60550311247112539199926564165838176256.000000000    
4.600000000        0.681817015           0.145834987            0.006449042         -164.662380960           122.651097284          59220161259819883856238082021732122624.000000000    
4.650000000        0.693209089           0.140285556            0.006778638         -164.528774794           120.539852537          62830502913760163104018627601182490624.000000000    
4.700000000        0.704248935           0.134101430            0.006319603         -164.374900691           118.463086414          61862989379756861836624397756073508864.000000000    
4.750000000        0.714761878           0.127558868            0.005688075         -164.232972878           116.388501652          59854069073214298404454872309903130624.000000000    
4.800000000        0.724802664           0.120825120            0.005882662         -164.108170416           114.310836780          58081769320867026873767430404544921600.000000000    
4.850000000        0.735077744           0.113383707            0.006237251         -163.973139658           112.257363714          60389491010462973124321517504007503872.000000000    
4.900000000        0.745177487           0.105422491            0.005976028         -163.816404439           110.239477619          60310322585124312191935290796471746560.000000000    
4.950000000        0.754794815           0.097302303            0.005334897         -163.665191714           108.229871325          58350171652879608193065830847669600256.000000000    
5.000000000        0.763959737           0.089173488            0.005335133         -163.531626368           106.216340559          56496814802642118287528534065455038464.000000000    
5.050000000        0.773112585           0.080700352            0.005653580         -163.396228393           104.218286817          57327103841639871955613607500663750656.000000000    
5.100000000        0.782234859           0.071903356            0.005537776         -163.239960454           102.254669836          58051901129610683088552007999019810816.000000000    
5.150000000        0.790923090           0.063293716            0.005002755         -163.082047286           100.306188234          56176580922264659468752683549551755264.000000000    
5.200000000        0.799198289           0.055018561            0.004793819         -162.941555005           98.353700241          54364304774866504528704978424736776192.000000000    
5.250000000        0.807291132           0.047007185            0.005024259         -162.806876165           96.408738665          54019295928168757205656407613890363392.000000000    
5.300000000        0.815430227           0.039325801            0.005100659         -162.653533233           94.495707455          55199758216931406764918817498656145408.000000000    
