position     E_HHG_pm        E_HHG_l           E_HHG_s        Phi_LH_l        Phi_LH_s     n_source 
(mm)         (arb.units)     (arb.units)      (arb.units)    (rad)           (rad)         (1/s)    
0.000000000        0.000000086           0.000000086            0.000000086         -247.078716648           97.909207561          171855495523900297860774298124288.000000000    
0.050000000        0.000000368           0.000000334            0.000000355         -246.052220114           97.280675960          567643222423449404950220443222016.000000000    
0.100000000        0.000000546           0.000000427            0.000000499         -245.032621768           96.651922953          363211875000445640896689647648768.000000000    
0.150000000        0.000000644           0.000000411            0.000000546         -244.019882287           96.022968397          201000003301912475299771710439424.000000000    
0.200000000        0.000000776           0.000000303            0.000000556         -243.013958901           95.393832147          274112023886737981627776976814080.000000000    
0.250000000        0.000001307           0.000000250            0.000000586         -242.014805806           94.764534059          1110737583164611955651809040662528.000000000    
0.300000000        0.000001722           0.000000630            0.000000685         -241.022374544           94.135093990          876526573810575702424994443165696.000000000    
0.350000000        0.000001954           0.000000740            0.000000706         -240.036614367           93.505531797          496212944919061768656832725778432.000000000    
0.400000000        0.000002171           0.000000698            0.000000658         -239.057472572           92.875867334          465379136454099972861864961900544.000000000    
0.450000000        0.000003051           0.000000464            0.000000684         -238.084894811           92.246120461          1912255886845785541351523120840704.000000000    
0.500000000        0.000003976           0.000000903            0.000001208         -237.118825387           91.616311032          2029472326849664920353125041176576.000000000    
0.550000000        0.000004509           0.000001093            0.000001475         -236.159207518           90.986458905          1179584347913958529038976391577600.000000000    
0.600000000        0.000004893           0.000001027            0.000001547         -235.205983590           90.356583937          859706961734747459195003855699968.000000000    
0.650000000        0.000006208           0.000000781            0.000001687         -234.259095384           89.726705986          2966921476216093203828362495131648.000000000    
0.700000000        0.000008180           0.000001922            0.000002443         -233.318484287           89.096844908          4491495159635610893863712779665408.000000000    
0.750000000        0.000009352           0.000002471            0.000002897         -232.384091483           88.467020562          2692613594794617014158192082419712.000000000    
0.800000000        0.000010093           0.000002423            0.000002965         -231.455858127           87.837252804          1721493229979245942915584216793088.000000000    
0.850000000        0.000011938           0.000001629            0.000002793         -230.533725507           87.207561492          4320006796670784496707318474342400.000000000    
0.900000000        0.000015884           0.000002876            0.000003863         -229.617635180           86.577966485          9330707948709204087882141717757952.000000000    
0.950000000        0.000018359           0.000004305            0.000005004         -228.707529105           85.948487640          5909308308092793706840009608265728.000000000    
1.000000000        0.000019866           0.000004522            0.000005348         -227.803349752           85.319144816          3629881626656234576641498126745600.000000000    
1.050000000        0.000022410           0.000003768            0.000005302         -226.905040204           84.689957871          6189078739013100621041630686740480.000000000    
1.100000000        0.000029623           0.000004929            0.000007068         -226.012544243           84.060946662          17706611530951963533306156864765952.000000000    
1.150000000        0.000034660           0.000007640            0.000009391         -225.125806424           83.432131049          12485131139005303037567061643493376.000000000    
1.200000000        0.000037750           0.000008245            0.000010199         -224.244772140           82.803530891          7729202811976988931398579930529792.000000000    
1.250000000        0.000041361           0.000007280            0.000010072         -223.369387673           82.175166045          9118713987526259472029742784315392.000000000    
1.300000000        0.000053186           0.000007566            0.000011421         -222.499600240           81.547056372          30142547316031368018498421843296256.000000000    
1.350000000        0.000063067           0.000012869            0.000015453         -221.635358022           80.919221730          25427599076449380975986472868904960.000000000    
1.400000000        0.000069259           0.000014749            0.000017281         -220.776610194           80.291681978          16081958525552313068342012205334528.000000000    
1.450000000        0.000074700           0.000013934            0.000017322         -219.923306936           79.664456976          14265647115448044934800541296361472.000000000    
1.500000000        0.000092130           0.000012133            0.000018300         -219.075399451           79.037566582          46131079042250458228596062474469376.000000000    
1.550000000        0.000110830           0.000020280            0.000025275         -218.232839957           78.411030658          49962271924740937935929722032619520.000000000    
1.600000000        0.000122814           0.000024618            0.000029417         -217.395581694           77.784869061          32317645948168760535817369308626944.000000000    
1.650000000        0.000131626           0.000024260            0.000030086         -216.563578906           77.159101653          23990220052756615204025024829718528.000000000    
1.700000000        0.000155246           0.000020512            0.000030117         -215.736786831           76.533748293          64906731586648669818151294625382400.000000000    
1.750000000        0.000189247           0.000032005            0.000040188         -214.915161681           75.908828842          94316810088909811278625097602039808.000000000    
1.800000000        0.000211642           0.000041288            0.000048406         -214.098660615           75.284363158          62707692132043706534392110637907968.000000000    
1.850000000        0.000226818           0.000042278            0.000050424         -213.287241716           74.660371104          42895513179315331746464420138582016.000000000    
1.900000000        0.000257320           0.000036714            0.000049502         -212.480863958           74.036872539          87028222783292774988946372086988800.000000000    
1.950000000        0.000315754           0.000049087            0.000062661         -211.679487171           73.413887324          168297499387086837357122330474577920.000000000    
2.000000000        0.000356213           0.000066617            0.000078192         -210.883072005           72.791435320          117625892522022163617722539079368704.000000000    
2.050000000        0.000383178           0.000070764            0.000083401         -210.091579891           72.169536387          79135969302322985951594754045116416.000000000    
2.100000000        0.000422269           0.000064651            0.000082316         -209.304973002           71.548210387          115802665096638242692712517897027584.000000000    
2.150000000        0.000515131           0.000074872            0.000096488         -208.523214209           70.927477180          277695419316830590723184687287631872.000000000    
2.200000000        0.000585876           0.000104578            0.000122572         -207.746267037           70.307356629          213552026100143714190147313224122368.000000000    
2.250000000        0.000633620           0.000115009            0.000133606         -206.974095623           69.687868594          145478354231764971937698000916185088.000000000    
2.300000000        0.000685171           0.000109317            0.000132953         -206.206664668           69.069032937          158565142774431501603732896513785856.000000000    
2.350000000        0.000819906           0.000111863            0.000143874         -205.443939394           68.450869519          418334877676576875542411791480913920.000000000    
2.400000000        0.000939774           0.000156591            0.000183580         -204.685885497           67.833398203          375687277774679242055792203839569920.000000000    
2.450000000        0.001022188           0.000178814            0.000205278         -203.932469103           67.216638849          260740148740866921693038582205251584.000000000    
2.500000000        0.001093844           0.000175810            0.000207129         -203.183656718           66.600611321          228839840703474335652690458797146112.000000000    
2.550000000        0.001273156           0.000168531            0.000212339         -202.439415192           65.985335481          578060591323812086762098030196817920.000000000    
2.600000000        0.001470080           0.000228565            0.000267662         -201.699711666           65.370831190          640826941745800891414353310065360896.000000000    
2.650000000        0.001608048           0.000270971            0.000307763         -200.964513535           64.757118311          453210197722000615461388613125668864.000000000    
2.700000000        0.001712885           0.000274240            0.000315669         -200.233788401           64.144216707          347630004133363728032840322983657472.000000000    
2.750000000        0.001936451           0.000257210            0.000314164         -199.507504035           63.532146240          748322074181831167664426105257852928.000000000    
2.800000000        0.002248838           0.000327771            0.000383197         -198.785628337           62.920926773          1055490650763106024289628687402270720.000000000    
2.850000000        0.002472976           0.000402165            0.000452375         -198.068129296           62.310578169          764462953475097010277348257115930624.000000000    
2.900000000        0.002635257           0.000419220            0.000473281         -197.354974952           61.701120292          558712604645373900900853387829968896.000000000    
2.950000000        0.002904719           0.000398438            0.000468650         -196.646133365           61.092573003          936479369766931543853842966312386560.000000000    
3.000000000        0.003376684           0.000469508            0.000545310         -195.941572575           60.484956167          1655737372790688122656029950848532480.000000000    
3.050000000        0.003730435           0.000586879            0.000654935         -195.241260573           59.878289647          1252735534323047033563280011889213440.000000000    
3.100000000        0.003985581           0.000627519            0.000698466         -194.545165270           59.272593307          912072757603854562325968018682675200.000000000    
3.150000000        0.004304333           0.000605899            0.000692520         -193.853254470           58.667887009          1150201839665378927906196104669036544.000000000    
3.200000000        0.004971941           0.000655955            0.000757067         -193.165495838           58.064190619          2431775796338632079742402156910608384.000000000    
3.250000000        0.005514942           0.000824496            0.000913870         -192.481856878           57.461523999          1996561520206107730589635940595007488.000000000    
3.300000000        0.005911705           0.000905627            0.000994126         -191.802304913           56.859907015          1472631024189012958460756273789927424.000000000    
3.350000000        0.006308483           0.000894997            0.000996061         -191.126807057           56.259359530          1486585239003561888210035552039206912.000000000    
3.400000000        0.007174768           0.000917385            0.001039301         -190.455330198           55.659901408          3276301221226218711126727274350510080.000000000    
3.450000000        0.007986264           0.001132551            0.001243707         -189.787840982           55.061552514          3098059292405557361970595789889601536.000000000    
3.500000000        0.008588446           0.001270802            0.001378603         -189.124305796           54.464332713          2320660329912160773648079072975126528.000000000    
3.550000000        0.009105263           0.001279105            0.001398122         -188.464690754           53.868261869          2010485950795533507176075739707473920.000000000    
3.600000000        0.010163180           0.001269854            0.001415020         -187.808961682           53.273359847          4154287437109268426315228742691061760.000000000    
3.650000000        0.011344377           0.001522631            0.001659814         -187.157084113           52.679646512          4682178896106014538702113262729691136.000000000    
3.700000000        0.012234655           0.001745055            0.001873438         -186.509023275           52.087141729          3562312660460987573104866314862723072.000000000    
3.750000000        0.012938538           0.001792785            0.001928354         -185.864744084           51.495865363          2843065792300608591349642366138974208.000000000    
3.800000000        0.014169232           0.001765162            0.001925059         -185.224211139           50.905837280          5017852037735190984736592472941002752.000000000    
3.850000000        0.015837118           0.002032429            0.002190487         -184.587388721           50.317077344          6864587769353445235807526697280995328.000000000    
3.900000000        0.017120410           0.002361274            0.002506825         -183.954240787           49.729605423          5331565955389938296909262840393629696.000000000    
3.950000000        0.018107112           0.002472064            0.002621866         -183.324730971           49.143441380          4138049856331886011575861613592313856.000000000    
4.000000000        0.019507882           0.002439514            0.002611842         -182.698822587           48.558605083          5930038031432745812564720763726200832.000000000    
4.050000000        0.021766714           0.002686604            0.002866806         -182.076478632           47.975116396          9652852569935565113843036328931885056.000000000    
4.100000000        0.023572160           0.003135889            0.003300675         -181.457661784           47.392995187          7788200485185282852858507237930303488.000000000    
4.150000000        0.024962548           0.003340514            0.003504641         -180.842334414           46.812261321          6054380729446152143185908205575208960.000000000    
4.200000000        0.026542477           0.003317854            0.003498160         -180.230458591           46.232934665          6944675214575291766323852318500454400.000000000    
4.250000000        0.029439334           0.003495570            0.003687412         -179.621996088           45.655035085          12853540338971018011146276214501539840.000000000    
4.300000000        0.031921060           0.004056416            0.004228984         -179.016908392           45.078582449          11115541329435012013761401168255254528.000000000    
4.350000000        0.033855020           0.004389240            0.004554162         -178.415156715           44.503596621          8743904270928138028050072117601894400.000000000    
4.400000000        0.035717615           0.004410158            0.004583778         -177.816702003           43.930097469          8500754365289218534459709862669451264.000000000    
4.450000000        0.039182911           0.004514201            0.004700083         -177.221504952           43.358104861          15964693909107373748700251984236642304.000000000    
4.500000000        0.042519263           0.005151827            0.005321510         -176.629526015           42.787638663          15515770084678281595296880550058393600.000000000    
4.550000000        0.045151918           0.005639282            0.005798393         -176.040725424           42.218718743          12358811463977353473865624991593136128.000000000    
4.600000000        0.047429713           0.005729886            0.005893222         -175.455063198           41.651364967          10793907148942393798233162513710579712.000000000    
4.650000000        0.051386710           0.005768926            0.005942945         -174.872499160           41.085597203          18928276151225084467422279141196562432.000000000    
4.700000000        0.055775016           0.006445159            0.006605149         -174.292992953           40.521435320          21189643224445774177526363830962094080.000000000    
4.750000000        0.059281640           0.007123486            0.007268027         -173.716504064           39.958899184          17092173560616215874446592470645997568.000000000    
4.800000000        0.062150586           0.007330232            0.007471942         -173.142991827           39.398008665          14116010371270958101578826030870691840.000000000    
4.850000000        0.066449591           0.007318078            0.007462717         -172.572415455           38.838783628          21352019633201755689774030120216952832.000000000    
4.900000000        0.072073112           0.007938813            0.008069811         -172.004734048           38.281243942          28194270828546657900565077937545543680.000000000    
4.950000000        0.076647769           0.008813236            0.008925994         -171.439906619           37.725409477          23152217503973761292848412967309410304.000000000    
5.000000000        0.080343974           0.009192462            0.009297286         -170.877892107           37.171300101          18883026660114782899580218250832642048.000000000    
5.050000000        0.085014465           0.009210098            0.009312266         -170.318649402           36.618935680          24085721744025006377690728615129382912.000000000    
5.100000000        0.091976178           0.009790485            0.009881009         -169.762137358           36.068336085          36240561279217103438915902250323804160.000000000    
5.150000000        0.097827239           0.010881206            0.010956057         -169.208314819           35.519521184          30746454159755188698729118882406072320.000000000    
5.200000000        0.102579139           0.011480150            0.011546102         -168.657140634           34.972510846          25206316232964299599191171815268417536.000000000    
5.250000000        0.107640152           0.011527918            0.011588849         -168.108573681           34.427324939          27099496199818721960298649303212097536.000000000    
5.300000000        0.115843706           0.011899099            0.011948652         -167.562572881           33.883983334          44341205928511765785754194662993690624.000000000    
5.350000000        0.123187831           0.013057700            0.013092210         -167.019097223           33.342505900          40070732537187882408400648370347048960.000000000    
